,Interval_start,Interval_end,ref_bpm,est_ibi
0,1532376659.0,1532376663.98,74.07407407407408,-1.0525291968207904
1,1532376664.0,1532376668.98,61.64383561643835,-0.538515323881735
2,1532376669.0,1532376673.98,69.76744186046511,-0.895178011227202
3,1532376674.0,1532376678.98,67.0391061452514,-0.7850321813116902
4,1532376679.0,1532376683.98,44.665012406947895,0.6258834495108184
5,1532376684.0,1532376688.98,71.09004739336493,-0.9455303906171503
6,1532376689.0,1532376693.98,79.36507936507937,-1.2224684772618657
7,1532376694.0,1532376698.98,68.76790830945559,-0.8558402148288049
8,1532376699.0,1532376703.98,47.12041884816754,0.40559178967979476
9,1532376704.0,1532376708.98,62.33766233766234,-0.5726080807603459
10,1532376709.0,1532376713.98,32.69754768392371,2.1731701078477705
11,1532376714.0,1532376718.98,44.776119402985074,0.6153933704712461
12,1532376719.0,1532376723.98,58.63192182410423,-0.3811641382881466
13,1532376724.0,1532376728.98,51.61290322580645,0.05679666161400752
14,1532376729.0,1532376733.98,44.11764705882353,0.6783338447086815
15,1532376734.0,1532376738.98,75.15657620041753,-1.089244473459294
16,1532376739.0,1532376743.98,72.46376811594203,-0.9958827700070985
17,1532376744.0,1532376748.98,67.98866855524079,-0.8243699777100872
18,1532376749.0,1532376753.98,77.12082262210797,-1.1532339556006868
19,1532376754.0,1532376758.98,56.737588652482266,-0.273640828132528
20,1532376759.0,1532376763.98,56.9620253164557,-0.28675342693199396
21,1532376764.0,1532376768.98,73.46938775510205,-1.0315490387416453
22,1532376769.0,1532376773.98,72.28915662650603,-0.989588722583355
23,1532376774.0,1532376778.98,48.38709677419355,0.30069099928406945
24,1532376779.0,1532376783.98,37.735849056603776,1.402149298439188
25,1532376784.0,1532376788.98,58.67970660146699,-0.38378665804803985
26,1532376789.0,1532376793.98,45.283018867924525,0.5681880147931696
27,1532376794.0,1532376798.98,31.914893617021278,2.3147861748820002
28,1532376799.0,1532376803.98,90.36144578313252,-1.5119946587540682
29,1532376804.0,1532376808.98,70.38123167155425,-0.9187806890662402
30,1532376809.0,1532376813.98,41.76334106728538,0.9196056626188505
31,1532376814.0,1532376818.98,52.17391304347826,0.01745886521561043
32,1532376819.0,1532376823.98,45.11278195488722,0.5839231333525284
33,1532376824.0,1532376828.98,65.57377049180327,-0.7220917070742547
34,1532376829.0,1532376833.98,69.44444444444444,-0.8825899163797148
35,1532376834.0,1532376838.98,53.25443786982248,-0.055971688061397226
36,1532376839.0,1532376843.98,57.55395683453237,-0.32084618381060453
37,1532376844.0,1532376848.98,45.91836734693877,0.5104925800755208
38,1532376849.0,1532376853.98,59.11330049261084,-0.4073893358870781
39,1532376854.0,1532376858.98,39.82300884955752,1.1398973224498743
40,1532376859.0,1532376863.98,49.86149584487535,0.1853001298487711
41,1532376864.0,1532376868.98,49.79253112033195,0.19054516936855762
42,1532376869.0,1532376873.98,54.54545454545455,-0.1398923203779779
43,1532376874.0,1532376878.98,41.570438799076214,0.9405858206979951
44,1532376879.0,1532376883.98,50.847457627118644,0.11186957657176344
45,1532376884.0,1532376888.98,43.0622009569378,0.7832346351044068
46,1532376889.0,1532376893.98,38.70967741935484,1.2762683499643173
47,1532376894.0,1532376898.98,40.17857142857143,1.0979370062915834
48,1532376899.0,1532376903.98,47.24409448818898,0.3951017106402225
49,1532376904.0,1532376908.98,60.301507537688444,-0.4703298101245134
50,1532376909.0,1532376913.98,45.80152671755725,0.5209826591150931
51,1532376914.0,1532376918.98,63.38028169014085,-0.6224359561983156
52,1532376919.0,1532376923.98,46.875,0.42657194775894014
53,1532376924.0,1532376928.98,74.81296758104739,-1.0777053865157644
54,1532376929.0,1532376933.98,53.25443786982248,-0.055971688061397226
55,1532376934.0,1532376938.98,67.22689075630252,-0.7928997405913696
56,1532376939.0,1532376943.98,67.72009029345372,-0.813355394718536
57,1532376944.0,1532376948.98,85.47008547008546,-1.3924077577029412
58,1532376949.0,1532376953.98,86.20689655172414,-1.4112898999741716
59,1532376954.0,1532376958.98,64.74820143884892,-0.6853764304357509
60,1532376959.0,1532376963.98,58.11138014527845,-0.3523164209293222
61,1532376964.0,1532376968.98,46.6321243523316,0.44755210583808547
62,1532376969.0,1532376973.98,60.810810810810814,-0.49655500772344496
63,1532376974.0,1532376978.98,59.80066445182724,-0.4441046125255819
64,1532376979.0,1532376983.98,59.701492537313435,-0.43885957300579576
65,1532376984.0,1532376988.98,66.66666666666667,-0.7692970627523313
66,1532376989.0,1532376993.98,65.21739130434783,-0.7063565885148959
67,1532376994.0,1532376998.98,37.5,1.4336195355579056
68,1532376999.0,1532377003.98,52.785923753665685,-0.024501450942679557
69,1532377004.0,1532377008.98,71.00591715976331,-0.9423833669052785
70,1532377009.0,1532377013.98,27.397260273972602,3.290363525562248
71,1532377014.0,1532377018.98,60.60606060606061,-0.48606492868387224
72,1532377019.0,1532377023.98,65.64551422319475,-0.7252387307861266
73,1532377024.0,1532377028.98,49.86149584487535,0.1853001298487711
74,1532377029.0,1532377033.98,69.76744186046511,-0.895178011227202
75,1532377034.0,1532377038.98,46.997389033942554,0.4160818687193678
76,1532377039.0,1532377043.98,56.9620253164557,-0.28675342693199396
77,1532377044.0,1532377048.98,53.097345132743364,-0.04548160902182491
78,1532377049.0,1532377053.98,56.33802816901409,-0.25003815029348975
79,1532377054.0,1532377058.98,39.603960396039604,1.1661225200488052
80,1532377059.0,1532377063.98,47.368421052631575,0.38461163160065015
81,1532377064.0,1532377068.98,56.24999999999999,-0.24479311077370325
82,1532377069.0,1532377073.98,84.7457627118644,-1.3735256154317106
83,1532377074.0,1532377078.98,45.45454545454545,0.5524528962338108
84,1532377079.0,1532377083.98,58.25242718446602,-0.3601839802090016
85,1532377084.0,1532377088.98,32.967032967032964,2.1259647521696943
86,1532377089.0,1532377093.98,57.55395683453237,-0.32084618381060453
87,1532377094.0,1532377098.98,56.60377358490566,-0.2657732688528486
88,1532377099.0,1532377103.98,50.42016806722689,0.1433398136904811
89,1532377104.0,1532377108.98,36.58536585365854,1.5595004840327762
90,1532377109.0,1532377113.98,74.44168734491315,-1.0651172916682774
91,1532377114.0,1532377118.98,54.54545454545455,-0.1398923203779779
92,1532377119.0,1532377123.98,41.76334106728538,0.9196056626188505
93,1532377124.0,1532377128.98,61.53846153846154,-0.5332702843619488
94,1532377129.0,1532377133.98,66.4819944598338,-0.7614295034726519
95,1532377134.0,1532377138.98,53.731343283582085,-0.0874419251801149
96,1532377139.0,1532377143.98,75.9493670886076,-1.1154696710582257
97,1532377144.0,1532377148.98,48.0,0.3321612364027871
98,1532377149.0,1532377153.98,39.735099337748345,1.1503874014894464
99,1532377154.0,1532377158.98,45.22613065326633,0.5734330543129561
100,1532377159.0,1532377163.98,38.83495145631068,1.2605332314049584
101,1532377164.0,1532377168.98,78.68852459016394,-1.2020128231346991
102,1532377169.0,1532377173.98,87.5912408759124,-1.4459071608047611
103,1532377174.0,1532377178.98,73.89162561576354,-1.0462351493970468
104,1532377179.0,1532377183.98,41.00227790432802,1.0035262949354304
105,1532377184.0,1532377188.98,65.93406593406593,-0.7378268256336136
106,1532377189.0,1532377193.98,42.654028436018955,0.8251949512626975
107,1532377194.0,1532377198.98,41.95804195804196,0.8986255045397051
108,1532377199.0,1532377203.98,58.96805896805897,-0.3995217766073987
109,1532377204.0,1532377208.98,47.745358090185675,0.3531413944819325
110,1532377209.0,1532377213.98,30.379746835443036,2.613753427509818
111,1532377214.0,1532377218.98,59.60264900662252,-0.4336145334860096
112,1532377219.0,1532377223.98,73.89162561576354,-1.0462351493970468
113,1532377224.0,1532377228.98,53.57142857142857,-0.07695184614054258
114,1532377229.0,1532377233.98,41.0958904109589,0.9930362158958581
115,1532377234.0,1532377238.98,68.18181818181819,-0.8322375369897667
116,1532377239.0,1532377243.98,33.61344537815126,2.0158189222541822
117,1532377244.0,1532377248.98,55.94405594405595,-0.2264354724544515
118,1532377249.0,1532377253.98,62.5,-0.5804756400400253
119,1532377254.0,1532377258.98,42.857142857142854,0.8042147931835522
120,1532377259.0,1532377263.98,52.478134110787174,-0.0035212928635349203
121,1532377264.0,1532377268.98,48.64864864864865,0.2797108412049241
122,1532377269.0,1532377273.98,62.893081761006286,-0.5993577823112559
123,1532377274.0,1532377278.98,56.074766355140184,-0.23430303173413092
124,1532377279.0,1532377283.98,57.83132530120482,-0.33658130236996336
125,1532377284.0,1532377288.98,37.03703703703704,1.4965600097953409
126,1532377289.0,1532377293.98,62.17616580310881,-0.5647405214806664
127,1532377294.0,1532377298.98,34.09090909090909,1.9371433294573883
128,1532377299.0,1532377303.98,57.971014492753625,-0.3444488616496428
129,1532377304.0,1532377308.98,27.272727272727273,3.3218337626809658
130,1532377309.0,1532377313.98,74.07407407407408,-1.0525291968207904
131,1532377314.0,1532377318.98,51.282051282051285,0.08039933945304577
132,1532377319.0,1532377323.98,55.42725173210162,-0.19496523533573384
133,1532377324.0,1532377328.98,90.22556390977444,-1.5088476350421964
134,1532377329.0,1532377333.98,18.75,6.468857474552732
135,1532377334.0,1532377338.98,55.04587155963303,-0.17136255749669557
136,1532377339.0,1532377343.98,44.11764705882353,0.6783338447086815
137,1532377344.0,1532377348.98,72.28915662650603,-0.989588722583355
138,1532377349.0,1532377353.98,68.3371298405467,-0.8385315844135102
139,1532377354.0,1532377358.98,68.18181818181819,-0.8322375369897667
140,1532377359.0,1532377363.98,37.65690376569038,1.4126393774787602
141,1532377364.0,1532377368.98,58.8235294117647,-0.39165421732771927
142,1532377369.0,1532377373.98,44.00977995110025,0.6888239237482537
143,1532377374.0,1532377378.98,56.074766355140184,-0.23430303173413092
144,1532377379.0,1532377383.98,61.06870229007634,-0.5096676065229105
145,1532377384.0,1532377388.98,61.64383561643835,-0.538515323881735
146,1532377389.0,1532377393.98,75.0,-1.083999433939508
147,1532377394.0,1532377398.98,60.150375939849624,-0.462462250844834
148,1532377399.0,1532377403.98,61.224489795918366,-0.51753516580259
149,1532377404.0,1532377408.98,50.0,0.17481005080919879
150,1532377409.0,1532377413.98,63.829787234042556,-0.6434161142774606
151,1532377414.0,1532377418.98,59.40594059405941,-0.4231244544464369
152,1532377419.0,1532377423.98,71.59904534606206,-0.9644125328883808
153,1532377424.0,1532377428.98,44.44444444444444,0.6468636075899638
154,1532377429.0,1532377433.98,55.38461538461539,-0.19234271557584093
155,1532377434.0,1532377438.98,53.333333333333336,-0.06121672758118374
156,1532377439.0,1532377443.98,52.325581395348834,0.006968786176038113
157,1532377444.0,1532377448.98,64.86486486486487,-0.6906214699555371
158,1532377449.0,1532377453.98,40.35874439461883,1.0769568482124388
159,1532377454.0,1532377458.98,44.943820224719104,0.5996582519118873
160,1532377459.0,1532377463.98,75.63025210084034,-1.104979592018653
161,1532377464.0,1532377468.98,44.943820224719104,0.5996582519118873
162,1532377469.0,1532377473.98,55.55555555555556,-0.20283279461541326
163,1532377474.0,1532377478.98,49.18032786885246,0.2377505250466341
164,1532377479.0,1532377483.98,62.33766233766234,-0.5726080807603459
165,1532377484.0,1532377488.98,57.69230769230769,-0.32871374309028395
166,1532377489.0,1532377493.98,47.745358090185675,0.3531413944819325
167,1532377494.0,1532377498.98,57.279236276849645,-0.30511106525124565
168,1532377499.0,1532377503.98,39.603960396039604,1.1661225200488052
169,1532377504.0,1532377508.98,66.96428571428571,-0.7818851575998184
170,1532377509.0,1532377513.98,33.333333333333336,2.063024277932259
171,1532377514.0,1532377518.98,53.333333333333336,-0.06121672758118374
172,1532377519.0,1532377523.98,59.11330049261084,-0.4073893358870781
173,1532377524.0,1532377528.98,60.91370558375635,-0.5018000472432311
174,1532377529.0,1532377533.98,45.91836734693877,0.5104925800755208
175,1532377534.0,1532377538.98,60.91370558375635,-0.5018000472432311
176,1532377539.0,1532377543.98,62.82722513089005,-0.5962107585993841
177,1532377544.0,1532377548.98,60.301507537688444,-0.4703298101245134
178,1532377549.0,1532377553.98,63.29113924050633,-0.6182399245824864
179,1532377554.0,1532377558.98,60.75949367088607,-0.4939324879635517
180,1532377559.0,1532377563.98,61.53846153846154,-0.5332702843619488
181,1532377564.0,1532377568.98,60.301507537688444,-0.4703298101245134
182,1532377569.0,1532377573.98,43.47826086956522,0.7412743189461168
183,1532377574.0,1532377578.98,45.22613065326633,0.5734330543129561
184,1532377579.0,1532377583.98,48.91304347826087,0.25873068312577946
185,1532377584.0,1532377588.98,42.857142857142854,0.8042147931835522
186,1532377589.0,1532377593.98,48.1283422459893,0.3216711573632148
187,1532377594.0,1532377598.98,52.17391304347826,0.01745886521561043
188,1532377599.0,1532377603.98,45.80152671755725,0.5209826591150931
189,1532377604.0,1532377608.98,50.847457627118644,0.11186957657176344
190,1532377609.0,1532377613.98,45.283018867924525,0.5681880147931696
191,1532377614.0,1532377618.98,43.0622009569378,0.7832346351044068
192,1532377619.0,1532377623.98,55.55555555555556,-0.20283279461541326
193,1532377624.0,1532377628.98,39.473684210526315,1.1818576386081643
194,1532377629.0,1532377633.98,76.7590618336887,-1.141694868657157
195,1532377634.0,1532377638.98,61.224489795918366,-0.51753516580259
196,1532377639.0,1532377643.98,67.66917293233082,-0.8112573789106217
197,1532377644.0,1532377648.98,55.04587155963303,-0.17136255749669557
198,1532377649.0,1532377653.98,60.402684563758385,-0.4755748496442996
